# Created by:        SpecsLab Prodigy, Version 4.60.2-r85849 
#
# XY-Serializer Export Settings:
#   Comment Prefix:           #
#   Output meta data:         yes
#   Energy Axis:              Binding Energy
#   Count Rate:               Counts per Second
#   Separate Scan Data:       no
#   Separate Channel Data:    no
#   External Channel Data:    yes
#   Transmission Function:    no
#   ErrorBar:                 no
#   Operation Results:        yes
#   Time Zone Format:         UTC
#
# Group:             Spectrum Group
#
# Region:            overview
# Acquisition Date:  08/22/22 13:27:51 UTC
# Analysis Method:   XPS
# Analyzer:          Phoibos 100 R6
# Analyzer Lens:     MediumArea:1.5kV
# Analyzer Slit:     1:0.2x20\B:open
# Scan Mode:         FixedAnalyzerTransmission
# Curves/Scan:       1
# Values/Curve:      1205
# Dwell Time:        0.2
# Excitation Energy: 1486.61
# Binding Energy:    1200
# Pass Energy:       50
# Bias Voltage:      90
# Detector Voltage:  2600
# Eff. Workfunction: 4.309
# Source:            X-Ray Dummy
# Comment:           
#
# Cycle: 0
# Number of Scans: 1
#
# Cycle: 0, Curve: 0
# Acquisition Date: 08/22/22 13:27:51 UTC
#
# ColumnLabels: energy counts/s
#
1200  10260
1199  10415
1198  10085
1197  10375
1196  10255
1195  10700
1194  10500
1193  10670
1192  10780
1191  10040
1190  10645
1189  10155
1188  10530
1187  9795
1186  10170
1185  10085
1184  10050
1183  9675
1182  9635
1181  9495
1180  9870
1179  9310
1178  9615
1177  9835
1176  9170
1175  9145
1174  9675
1173  9485
1172  9340
1171  9355
1170  9500
1169  9205
1168  9670
1167  9375
1166  9385
1165  9535
1164  9545
1163  9480
1162  9380
1161  9780
1160  9635
1159  9575
1158  9835
1157  9260
1156  9355
1155  9220
1154  9460
1153  8815
1152  9735
1151  9325
1150  9600
1149  9195
1148  9105
1147  9415
1146  9540
1145  8825
1144  8795
1143  8940
1142  8660
1141  8945
1140  8510
1139  8425
1138  7885
1137  8030
1136  7860
1135  7830
1134  7450
1133  7335
1132  7865
1131  7340
1130  7110
1129  7130
1128  7690
1127  7345
1126  7335
1125  7405
1124  7180
1123  7140
1122  7205
1121  7175
1120  7385
1119  7230
1118  7315
1117  6995
1116  7095
1115  7175
1114  7060
1113  7155
1112  7175
1111  7135
1110  6980
1109  7030
1108  7180
1107  7305
1106  6850
1105  7465
1104  7030
1103  7340
1102  7130
1101  7430
1100  6880
1099  7155
1098  7225
1097  7610
1096  7485
1095  7260
1094  7390
1093  7590
1092  7430
1091  7990
1090  8730
1089  9445
1088  9985
1087  10505
1086  10760
1085  10365
1084  9465
1083  8940
1082  8495
1081  8505
1080  8725
1079  8645
1078  8020
1077  7175
1076  6385
1075  6000
1074  5665
1073  5570
1072  5320
1071  5540
1070  5280
1069  5505
1068  5485
1067  5470
1066  5535
1065  5895
1064  5475
1063  5575
1062  5440
1061  5410
1060  5590
1059  5625
1058  5170
1057  5095
1056  5015
1055  4835
1054  5130
1053  4740
1052  5025
1051  4915
1050  4580
1049  4685
1048  4780
1047  4765
1046  4725
1045  4385
1044  4520
1043  4920
1042  4620
1041  4700
1040  4545
1039  4605
1038  4705
1037  4750
1036  4585
1035  4610
1034  4595
1033  4640
1032  4605
1031  4460
1030  4375
1029  4805
1028  4665
1027  4770
1026  4440
1025  4765
1024  4630
1023  4515
1022  4365
1021  4460
1020  4380
1019  4570
1018  4755
1017  4600
1016  4755
1015  4605
1014  4565
1013  4380
1012  4855
1011  4775
1010  4865
1009  4925
1008  4400
1007  4555
1006  4555
1005  4425
1004  4955
1003  4605
1002  4680
1001  4675
1000  4840
999  4845
998  4645
997  4985
996  5005
995  4880
994  4875
993  4985
992  4770
991  4750
990  4390
989  4505
988  4430
987  4455
986  4595
985  4760
984  4385
983  4780
982  4420
981  4510
980  4580
979  4705
978  4700
977  5175
976  5275
975  5790
974  5935
973  5375
972  4720
971  4700
970  4610
969  4345
968  4480
967  4490
966  4170
965  4415
964  4105
963  4405
962  4165
961  4185
960  4190
959  4210
958  3875
957  3965
956  4355
955  4140
954  4045
953  4025
952  3910
951  4070
950  4060
949  4115
948  3960
947  3995
946  4045
945  4305
944  4090
943  3995
942  4090
941  4275
940  3895
939  4165
938  4110
937  4350
936  4195
935  4610
934  3860
933  4265
932  4165
931  4045
930  4090
929  4390
928  4005
927  4015
926  4215
925  4125
924  4070
923  4140
922  3985
921  3930
920  4150
919  4435
918  4105
917  3850
916  4095
915  3915
914  4000
913  3765
912  4135
911  3985
910  4135
909  3850
908  4230
907  4390
906  4075
905  4065
904  4310
903  4215
902  3925
901  3860
900  4315
899  3980
898  4070
897  4265
896  4295
895  4240
894  3925
893  4170
892  4155
891  4050
890  4380
889  4390
888  4435
887  4160
886  4200
885  4250
884  4125
883  3905
882  4155
881  4145
880  4045
879  4240
878  4085
877  4210
876  4295
875  4395
874  3885
873  4110
872  4395
871  4015
870  4225
869  4285
868  4100
867  4055
866  3950
865  4260
864  4060
863  4225
862  4255
861  4045
860  4270
859  4240
858  4250
857  4145
856  4065
855  4115
854  4045
853  4390
852  3985
851  4440
850  4230
849  4160
848  4240
847  4365
846  4265
845  4195
844  4400
843  4680
842  4190
841  4115
840  4455
839  4380
838  4200
837  4460
836  4285
835  4385
834  4500
833  4595
832  4465
831  4700
830  4440
829  4660
828  4345
827  4920
826  4645
825  4660
824  4460
823  4490
822  4420
821  4330
820  4460
819  4545
818  4550
817  4260
816  4425
815  4435
814  4190
813  4385
812  3980
811  4325
810  4090
809  4320
808  4320
807  4290
806  4080
805  4200
804  4425
803  4210
802  4185
801  4010
800  4150
799  4215
798  4205
797  3875
796  4205
795  4250
794  4315
793  4245
792  4085
791  4575
790  4165
789  4115
788  4030
787  4265
786  4335
785  4330
784  4435
783  4565
782  4265
781  4240
780  4335
779  4030
778  4135
777  4355
776  4460
775  4095
774  4380
773  4420
772  4315
771  4205
770  4455
769  4525
768  4380
767  4585
766  4560
765  4510
764  4505
763  4185
762  4385
761  4525
760  4720
759  4430
758  4470
757  4360
756  4470
755  4580
754  4435
753  4370
752  4355
751  4310
750  4535
749  4310
748  4495
747  4620
746  4555
745  4410
744  4325
743  4540
742  4370
741  4350
740  4355
739  4535
738  4405
737  4695
736  4410
735  4715
734  4350
733  4485
732  4785
731  4540
730  4410
729  4395
728  4385
727  4445
726  4670
725  4400
724  4545
723  4680
722  4650
721  4765
720  4690
719  4530
718  4870
717  5055
716  4925
715  4905
714  4960
713  4740
712  4685
711  4435
710  4750
709  4630
708  5005
707  5515
706  6065
705  6550
704  6805
703  6455
702  5520
701  4935
700  4850
699  4575
698  4615
697  4570
696  4775
695  4540
694  4695
693  4325
692  4775
691  4645
690  4640
689  4590
688  4380
687  4565
686  4515
685  4865
684  4665
683  4595
682  4530
681  4780
680  4600
679  4820
678  4525
677  4675
676  4455
675  4625
674  4535
673  4560
672  4340
671  4670
670  5180
669  6045
668  7000
667  7930
666  8445
665  7610
664  6340
663  5365
662  4600
661  4185
660  4490
659  3975
658  4215
657  4370
656  4255
655  4200
654  3870
653  4295
652  3920
651  3870
650  3680
649  3930
648  4025
647  3875
646  3850
645  3920
644  3830
643  3775
642  3820
641  3920
640  3750
639  3955
638  4055
637  3880
636  3895
635  4135
634  3945
633  3810
632  4020
631  3945
630  3870
629  3815
628  3870
627  3820
626  4030
625  4040
624  4020
623  3820
622  3760
621  3770
620  3895
619  3940
618  3985
617  3840
616  4145
615  4110
614  4105
613  3930
612  4055
611  4005
610  3970
609  3885
608  3710
607  3960
606  3935
605  3710
604  4070
603  3880
602  4180
601  3885
600  4020
599  4110
598  4055
597  4090
596  4200
595  4020
594  4205
593  4075
592  4035
591  4215
590  3910
589  4310
588  4120
587  3915
586  4070
585  4005
584  4030
583  4105
582  3965
581  4250
580  4015
579  4035
578  3915
577  4460
576  4380
575  4515
574  4450
573  4190
572  4080
571  4165
570  4380
569  4225
568  4560
567  4325
566  4405
565  3995
564  4130
563  4340
562  4475
561  4105
560  4350
559  4110
558  4285
557  4340
556  4380
555  4475
554  4525
553  4335
552  4345
551  4390
550  4710
549  4605
548  4585
547  4405
546  4405
545  4510
544  4295
543  4120
542  4290
541  4160
540  4285
539  4145
538  4220
537  3980
536  4380
535  4250
534  4465
533  4750
532  6080
531  8335
530  7830
529  5785
528  4370
527  4135
526  3760
525  4100
524  4335
523  4065
522  4400
521  4460
520  4440
519  4485
518  4195
517  3970
516  4070
515  4110
514  4040
513  3900
512  4155
511  3945
510  4110
509  3980
508  4240
507  3965
506  4085
505  4015
504  4270
503  4060
502  4200
501  4165
500  4235
499  4030
498  4340
497  4525
496  5085
495  5155
494  4505
493  4095
492  4185
491  3920
490  4295
489  4625
488  5100
487  5665
486  5125
485  4705
484  4245
483  4250
482  3765
481  4375
480  4115
479  4235
478  4220
477  4175
476  4190
475  4100
474  4410
473  4295
472  4300
471  4080
470  4565
469  4285
468  4055
467  4200
466  4560
465  4315
464  4620
463  4135
462  4705
461  3865
460  4165
459  3865
458  4005
457  4125
456  4210
455  5780
454  9610
453  14755
452  13710
451  6795
450  3730
449  3195
448  4300
447  7520
446  15575
445  20160
444  12900
443  5775
442  3625
441  2765
440  2315
439  2025
438  2030
437  2185
436  2770
435  2845
434  2525
433  2290
432  1910
431  1735
430  1460
429  1450
428  1545
427  1380
426  1415
425  1435
424  1455
423  1500
422  1380
421  1480
420  1405
419  1415
418  1255
417  1310
416  1480
415  1285
414  1295
413  1220
412  1390
411  1465
410  1335
409  1440
408  1405
407  1300
406  1375
405  1400
404  1295
403  1365
402  1440
401  1515
400  1285
399  1370
398  1485
397  1355
396  1320
395  1365
394  1505
393  1290
392  1175
391  1225
390  1370
389  1390
388  1415
387  1340
386  1510
385  1495
384  1340
383  1545
382  1455
381  1500
380  1645
379  1400
378  1430
377  1405
376  1405
375  1505
374  1590
373  1495
372  1335
371  1275
370  1135
369  1205
368  1115
367  1265
366  1290
365  1380
364  1315
363  1175
362  1270
361  1100
360  1395
359  1075
358  1205
357  1240
356  1335
355  1260
354  1375
353  1180
352  1280
351  1185
350  1275
349  1485
348  1160
347  1265
346  1350
345  1250
344  1285
343  1310
342  1335
341  1310
340  1375
339  1235
338  1285
337  1310
336  1240
335  1330
334  1180
333  1250
332  1270
331  1300
330  1205
329  1255
328  1215
327  1340
326  1310
325  1320
324  1290
323  1325
322  1350
321  1230
320  1305
319  1185
318  1315
317  1130
316  1335
315  1285
314  1405
313  1460
312  1245
311  1300
310  1285
309  1380
308  1310
307  1445
306  1290
305  1500
304  1135
303  1300
302  1290
301  1280
300  1220
299  1260
298  1280
297  1440
296  1330
295  1420
294  1300
293  1330
292  1315
291  1315
290  1300
289  1320
288  1260
287  1460
286  1400
285  1555
284  1505
283  1340
282  1355
281  1420
280  1270
279  1390
278  1265
277  1440
276  1315
275  1280
274  1320
273  1425
272  1410
271  1385
270  1350
269  1310
268  1335
267  1195
266  1315
265  1345
264  1305
263  1265
262  1225
261  1335
260  1510
259  1235
258  1390
257  1250
256  1445
255  1410
254  1295
253  1375
252  1375
251  1265
250  1355
249  1405
248  1460
247  1300
246  1355
245  1510
244  1345
243  1315
242  1510
241  1545
240  1305
239  1430
238  1275
237  1340
236  1340
235  1430
234  1370
233  1515
232  1380
231  1365
230  1450
229  1395
228  1370
227  1400
226  1285
225  1345
224  1345
223  1220
222  1430
221  1235
220  1335
219  1340
218  1270
217  1360
216  1300
215  1245
214  1375
213  1370
212  1415
211  1310
210  1370
209  1385
208  1360
207  1320
206  1270
205  1325
204  1400
203  1440
202  1295
201  1345
200  1525
199  1410
198  1310
197  1275
196  1405
195  1130
194  1370
193  1400
192  1475
191  1390
190  1440
189  1470
188  1435
187  1375
186  1445
185  1520
184  1470
183  1500
182  1415
181  1525
180  1395
179  1480
178  1445
177  1355
176  1430
175  1140
174  1280
173  1375
172  1535
171  1400
170  1540
169  1535
168  1420
167  1490
166  1510
165  1375
164  1450
163  1435
162  1530
161  1575
160  1420
159  1495
158  1305
157  1480
156  1530
155  1485
154  1645
153  1525
152  1465
151  1340
150  1440
149  1475
148  1490
147  1530
146  1585
145  1535
144  1475
143  1285
142  1475
141  1560
140  1465
139  1350
138  1515
137  1430
136  1415
135  1435
134  1485
133  1515
132  1500
131  1455
130  1525
129  1535
128  1630
127  1640
126  1690
125  1825
124  1925
123  1865
122  1670
121  1605
120  1505
119  1580
118  1475
117  1505
116  1435
115  1345
114  1575
113  1565
112  1570
111  1465
110  1465
109  1365
108  1420
107  1735
106  1565
105  1330
104  1525
103  1370
102  1575
101  1380
100  1505
99  1495
98  1445
97  1680
96  1570
95  1675
94  1580
93  1615
92  1540
91  1900
90  1615
89  1775
88  1705
87  1740
86  1920
85  1825
84  1750
83  1880
82  1705
81  1855
80  1980
79  1885
78  1735
77  1740
76  1610
75  1625
74  1430
73  1365
72  1415
71  1445
70  1420
69  1160
68  1260
67  1130
66  1100
65  970
64  1205
63  1245
62  1070
61  1120
60  1160
59  960
58  1095
57  1210
56  1205
55  1000
54  1045
53  1045
52  1145
51  1110
50  1030
49  1030
48  1135
47  1050
46  1165
45  1160
44  1135
43  1160
42  1045
41  1145
40  1165
39  1020
38  1015
37  1200
36  1210
35  1170
34  1120
33  1080
32  1165
31  1090
30  1215
29  1305
28  1370
27  1405
26  1530
25  1180
24  1170
23  1345
22  1355
21  1675
20  2785
19  4000
18  3855
17  2245
16  1185
15  920
14  905
13  890
12  830
11  990
10  880
9  1080
8  1195
7  1000
6  930
5  795
4  770
3  705
2  755
1  730
-2.2737368e-013  730
-1  640
-2  665
-3  590
-4  725

# Region:            C1s
# Acquisition Date:  08/22/22 13:30:09 UTC
# Analysis Method:   XPS
# Analyzer:          Phoibos 100 R6
# Analyzer Lens:     LargeArea:1.5kV
# Analyzer Slit:     1:0.2x20\B:open
# Scan Mode:         FixedAnalyzerTransmission
# Curves/Scan:       1
# Values/Curve:      151
# Dwell Time:        0.8
# Excitation Energy: 1486.61
# Binding Energy:    295
# Pass Energy:       30
# Bias Voltage:      90
# Detector Voltage:  2600
# Eff. Workfunction: 4.309
# Source:            X-Ray Dummy
# Comment:           
#
# Cycle: 0
# Number of Scans: 1
#
# Cycle: 0, Curve: 0
# Acquisition Date: 08/22/22 13:30:09 UTC
#
# ColumnLabels: energy counts/s
#
295  1048.75
294.9  951.25
294.8  1001.25
294.7  1008.75
294.6  1023.75
294.5  986.25
294.4  1028.75
294.3  1055
294.2  1001.25
294.1  1016.25
294  1047.5
293.9  1010
293.8  1023.75
293.7  1013.75
293.6  1105
293.5  1015
293.4  1038.75
293.3  966.25
293.2  995
293.1  968.75
293  967.5
292.9  1045
292.8  990
292.7  1027.5
292.6  986.25
292.5  1035
292.4  1017.5
292.3  1053.75
292.2  1028.75
292.1  900
292  983.75
291.9  1028.75
291.8  1007.5
291.7  976.25
291.6  1012.5
291.5  920
291.4  1000
291.3  968.75
291.2  970
291.1  952.5
291  963.75
290.9  987.5
290.8  930
290.7  982.5
290.6  971.25
290.5  978.75
290.4  1026.25
290.3  1023.75
290.2  992.5
290.1  1058.75
290  1028.75
289.9  966.25
289.8  998.75
289.7  1046.25
289.6  950
289.5  1005
289.4  1026.25
289.3  1012.5
289.2  1017.5
289.1  997.5
289  1012.5
288.9  1025
288.8  978.75
288.7  1006.25
288.6  960
288.5  933.75
288.4  981.25
288.3  965
288.2  1002.5
288.1  1036.25
288  1030
287.9  930
287.8  1020
287.7  986.25
287.6  1013.75
287.5  941.25
287.4  1013.75
287.3  1040
287.2  998.75
287.1  1002.5
287  1060
286.9  1011.25
286.8  986.25
286.7  1047.5
286.6  1025
286.5  968.75
286.4  1010
286.3  1076.25
286.2  1043.75
286.1  1111.25
286  1050
285.9  1017.5
285.8  1035
285.7  1045
285.6  1027.5
285.5  1108.75
285.4  1081.25
285.3  1032.5
285.2  1117.5
285.1  1000
285  1071.25
284.9  1262.5
284.8  967.5
284.7  1058.75
284.6  1006.25
284.5  1051.25
284.4  1077.5
284.3  1037.5
284.2  1011.25
284.1  986.25
284  1087.5
283.9  1053.75
283.8  986.25
283.7  1052.5
283.6  960
283.5  937.5
283.4  1020
283.3  1002.5
283.2  1016.25
283.1  957.5
283  921.25
282.9  982.5
282.8  967.5
282.7  1031.25
282.6  1013.75
282.5  887.5
282.4  928.75
282.3  997.5
282.2  991.25
282.1  980
282  952.5
281.9  1002.5
281.8  982.5
281.7  920
281.6  1087.5
281.5  971.25
281.4  983.75
281.3  970
281.2  1003.75
281.1  956.25
281  1001.25
280.9  1016.25
280.8  952.5
280.7  1040
280.6  976.25
280.5  990
280.4  935
280.3  930
280.2  898.75
280.1  950
280  918.75

